JOHN
time[s]       Fp1      Fp2       F7       F3       Fz       F4       F8       T3       C3       Cz       C4       T4       T5       P3       Pz       P4       T6       O1       O2      Ref     Drlv   Photic 
0.000 8415.000 8415.000 8415.000 8415.000 8415.000 8415.000 8415.000 8415.000 8415.000 8415.000 8415.000 8415.000 8415.000 8415.000 8415.000 8415.000 8415.000 8415.000 8415.000 8415.000 8415.000 -1.000
0.002 8903.000 8903.000 8903.000 8903.000 8903.000 8903.000 8903.000 8903.000 8903.000 8903.000 8903.000 8903.000 8903.000 8903.000 8903.000 8903.000 8903.000 8903.000 8903.000 8903.000 8903.000 -1.000
0.004 9306.000 9306.000 9306.000 9306.000 9306.000 9306.000 9306.000 9306.000 9306.000 9306.000 9306.000 9306.000 9306.000 9306.000 9306.000 9306.000 9306.000 9306.000 9306.000 9306.000 9306.000 -1.000
0.006 9620.000 9620.000 9620.000 9620.000 9620.000 9620.000 9620.000 9620.000 9620.000 9620.000 9620.000 9620.000 9620.000 9620.000 9620.000 9620.000 9620.000 9620.000 9620.000 9620.000 9620.000 -1.000
0.008 9841.000 9841.000 9841.000 9841.000 9841.000 9841.000 9841.000 9841.000 9841.000 9841.000 9841.000 9841.000 9841.000 9841.000 9841.000 9841.000 9841.000 9841.000 9841.000 9841.000 9841.000 -1.000
0.010 9967.000 9967.000 9967.000 9967.000 9967.000 9967.000 9967.000 9967.000 9967.000 9967.000 9967.000 9967.000 9967.000 9967.000 9967.000 9967.000 9967.000 9967.000 9967.000 9967.000 9967.000 -1.000
0.012 9999.000 9999.000 9999.000 9999.000 9999.000 9999.000 9999.000 9999.000 9999.000 9999.000 9999.000 9999.000 9999.000 9999.000 9999.000 9999.000 9999.000 9999.000 9999.000 9999.000 9999.000 -1.000
0.014 9934.000 9934.000 9934.000 9934.000 9934.000 9934.000 9934.000 9934.000 9934.000 9934.000 9934.000 9934.000 9934.000 9934.000 9934.000 9934.000 9934.000 9934.000 9934.000 9934.000 9934.000 -1.000
0.016 9773.000 9773.000 9773.000 9773.000 9773.000 9773.000 9773.000 9773.000 9773.000 9773.000 9773.000 9773.000 9773.000 9773.000 9773.000 9773.000 9773.000 9773.000 9773.000 9773.000 9773.000 -1.000
0.018 9519.000 9519.000 9519.000 9519.000 9519.000 9519.000 9519.000 9519.000 9519.000 9519.000 9519.000 9519.000 9519.000 9519.000 9519.000 9519.000 9519.000 9519.000 9519.000 9519.000 9519.000 -1.000
0.020 9174.000 9174.000 9174.000 9174.000 9174.000 9174.000 9174.000 9174.000 9174.000 9174.000 9174.000 9174.000 9174.000 9174.000 9174.000 9174.000 9174.000 9174.000 9174.000 9174.000 9174.000 -1.000
0.022 8740.000 8740.000 8740.000 8740.000 8740.000 8740.000 8740.000 8740.000 8740.000 8740.000 8740.000 8740.000 8740.000 8740.000 8740.000 8740.000 8740.000 8740.000 8740.000 8740.000 8740.000 -1.000
0.024 8223.000 8223.000 8223.000 8223.000 8223.000 8223.000 8223.000 8223.000 8223.000 8223.000 8223.000 8223.000 8223.000 8223.000 8223.000 8223.000 8223.000 8223.000 8223.000 8223.000 8223.000 -1.000
0.026 7626.000 7626.000 7626.000 7626.000 7626.000 7626.000 7626.000 7626.000 7626.000 7626.000 7626.000 7626.000 7626.000 7626.000 7626.000 7626.000 7626.000 7626.000 7626.000 7626.000 7626.000 -1.000
0.028 6957.000 6957.000 6957.000 6957.000 6957.000 6957.000 6957.000 6957.000 6957.000 6957.000 6957.000 6957.000 6957.000 6957.000 6957.000 6957.000 6957.000 6957.000 6957.000 6957.000 6957.000 -1.000
0.030 6220.000 6220.000 6220.000 6220.000 6220.000 6220.000 6220.000 6220.000 6220.000 6220.000 6220.000 6220.000 6220.000 6220.000 6220.000 6220.000 6220.000 6220.000 6220.000 6220.000 6220.000 -1.000
0.032 5424.000 5424.000 5424.000 5424.000 5424.000 5424.000 5424.000 5424.000 5424.000 5424.000 5424.000 5424.000 5424.000 5424.000 5424.000 5424.000 5424.000 5424.000 5424.000 5424.000 5424.000 -1.000
0.034 4576.000 4576.000 4576.000 4576.000 4576.000 4576.000 4576.000 4576.000 4576.000 4576.000 4576.000 4576.000 4576.000 4576.000 4576.000 4576.000 4576.000 4576.000 4576.000 4576.000 4576.000 -1.000
0.036 3684.000 3684.000 3684.000 3684.000 3684.000 3684.000 3684.000 3684.000 3684.000 3684.000 3684.000 3684.000 3684.000 3684.000 3684.000 3684.000 3684.000 3684.000 3684.000 3684.000 3684.000 -1.000
0.038 2756.000 2756.000 2756.000 2756.000 2756.000 2756.000 2756.000 2756.000 2756.000 2756.000 2756.000 2756.000 2756.000 2756.000 2756.000 2756.000 2756.000 2756.000 2756.000 2756.000 2756.000 -1.000
0.040 1802.000 1802.000 1802.000 1802.000 1802.000 1802.000 1802.000 1802.000 1802.000 1802.000 1802.000 1802.000 1802.000 1802.000 1802.000 1802.000 1802.000 1802.000 1802.000 1802.000 1802.000 -1.000
0.042 831.000 831.000 831.000 831.000 831.000 831.000 831.000 831.000 831.000 831.000 831.000 831.000 831.000 831.000 831.000 831.000 831.000 831.000 831.000 831.000 831.000 -1.000
0.044 -148.000 -148.000 -148.000 -148.000 -148.000 -148.000 -148.000 -148.000 -148.000 -148.000 -148.000 -148.000 -148.000 -148.000 -148.000 -148.000 -148.000 -148.000 -148.000 -148.000 -148.000 -1.000
0.046 -1126.000 -1126.000 -1126.000 -1126.000 -1126.000 -1126.000 -1126.000 -1126.000 -1126.000 -1126.000 -1126.000 -1126.000 -1126.000 -1126.000 -1126.000 -1126.000 -1126.000 -1126.000 -1126.000 -1126.000 -1126.000 -1.000
0.048 -2093.000 -2093.000 -2093.000 -2093.000 -2093.000 -2093.000 -2093.000 -2093.000 -2093.000 -2093.000 -2093.000 -2093.000 -2093.000 -2093.000 -2093.000 -2093.000 -2093.000 -2093.000 -2093.000 -2093.000 -2093.000 -1.000
0.050 -3040.000 -3040.000 -3040.000 -3040.000 -3040.000 -3040.000 -3040.000 -3040.000 -3040.000 -3040.000 -3040.000 -3040.000 -3040.000 -3040.000 -3040.000 -3040.000 -3040.000 -3040.000 -3040.000 -3040.000 -3040.000 -1.000
0.052 -3957.000 -3957.000 -3957.000 -3957.000 -3957.000 -3957.000 -3957.000 -3957.000 -3957.000 -3957.000 -3957.000 -3957.000 -3957.000 -3957.000 -3957.000 -3957.000 -3957.000 -3957.000 -3957.000 -3957.000 -3957.000 -1.000
0.054 -4837.000 -4837.000 -4837.000 -4837.000 -4837.000 -4837.000 -4837.000 -4837.000 -4837.000 -4837.000 -4837.000 -4837.000 -4837.000 -4837.000 -4837.000 -4837.000 -4837.000 -4837.000 -4837.000 -4837.000 -4837.000 -1.000
0.056 -5670.000 -5670.000 -5670.000 -5670.000 -5670.000 -5670.000 -5670.000 -5670.000 -5670.000 -5670.000 -5670.000 -5670.000 -5670.000 -5670.000 -5670.000 -5670.000 -5670.000 -5670.000 -5670.000 -5670.000 -5670.000 -1.000
0.058 -6449.000 -6449.000 -6449.000 -6449.000 -6449.000 -6449.000 -6449.000 -6449.000 -6449.000 -6449.000 -6449.000 -6449.000 -6449.000 -6449.000 -6449.000 -6449.000 -6449.000 -6449.000 -6449.000 -6449.000 -6449.000 -1.000
0.060 -7166.000 -7166.000 -7166.000 -7166.000 -7166.000 -7166.000 -7166.000 -7166.000 -7166.000 -7166.000 -7166.000 -7166.000 -7166.000 -7166.000 -7166.000 -7166.000 -7166.000 -7166.000 -7166.000 -7166.000 -7166.000 -1.000
0.062 -7814.000 -7814.000 -7814.000 -7814.000 -7814.000 -7814.000 -7814.000 -7814.000 -7814.000 -7814.000 -7814.000 -7814.000 -7814.000 -7814.000 -7814.000 -7814.000 -7814.000 -7814.000 -7814.000 -7814.000 -7814.000 -1.000
0.064 -8387.000 -8387.000 -8387.000 -8387.000 -8387.000 -8387.000 -8387.000 -8387.000 -8387.000 -8387.000 -8387.000 -8387.000 -8387.000 -8387.000 -8387.000 -8387.000 -8387.000 -8387.000 -8387.000 -8387.000 -8387.000 -1.000
0.066 -8880.000 -8880.000 -8880.000 -8880.000 -8880.000 -8880.000 -8880.000 -8880.000 -8880.000 -8880.000 -8880.000 -8880.000 -8880.000 -8880.000 -8880.000 -8880.000 -8880.000 -8880.000 -8880.000 -8880.000 -8880.000 -1.000
0.068 -9287.000 -9287.000 -9287.000 -9287.000 -9287.000 -9287.000 -9287.000 -9287.000 -9287.000 -9287.000 -9287.000 -9287.000 -9287.000 -9287.000 -9287.000 -9287.000 -9287.000 -9287.000 -9287.000 -9287.000 -9287.000 -1.000
0.070 -9606.000 -9606.000 -9606.000 -9606.000 -9606.000 -9606.000 -9606.000 -9606.000 -9606.000 -9606.000 -9606.000 -9606.000 -9606.000 -9606.000 -9606.000 -9606.000 -9606.000 -9606.000 -9606.000 -9606.000 -9606.000 -1.000
0.072 -9832.000 -9832.000 -9832.000 -9832.000 -9832.000 -9832.000 -9832.000 -9832.000 -9832.000 -9832.000 -9832.000 -9832.000 -9832.000 -9832.000 -9832.000 -9832.000 -9832.000 -9832.000 -9832.000 -9832.000 -9832.000 -1.000
0.074 -9963.000 -9963.000 -9963.000 -9963.000 -9963.000 -9963.000 -9963.000 -9963.000 -9963.000 -9963.000 -9963.000 -9963.000 -9963.000 -9963.000 -9963.000 -9963.000 -9963.000 -9963.000 -9963.000 -9963.000 -9963.000 -1.000
0.076 -9999.000 -9999.000 -9999.000 -9999.000 -9999.000 -9999.000 -9999.000 -9999.000 -9999.000 -9999.000 -9999.000 -9999.000 -9999.000 -9999.000 -9999.000 -9999.000 -9999.000 -9999.000 -9999.000 -9999.000 -9999.000 -1.000
0.078 -9939.000 -9939.000 -9939.000 -9939.000 -9939.000 -9939.000 -9939.000 -9939.000 -9939.000 -9939.000 -9939.000 -9939.000 -9939.000 -9939.000 -9939.000 -9939.000 -9939.000 -9939.000 -9939.000 -9939.000 -9939.000 -1.000
0.080 -9784.000 -9784.000 -9784.000 -9784.000 -9784.000 -9784.000 -9784.000 -9784.000 -9784.000 -9784.000 -9784.000 -9784.000 -9784.000 -9784.000 -9784.000 -9784.000 -9784.000 -9784.000 -9784.000 -9784.000 -9784.000 -1.000
0.082 -9534.000 -9534.000 -9534.000 -9534.000 -9534.000 -9534.000 -9534.000 -9534.000 -9534.000 -9534.000 -9534.000 -9534.000 -9534.000 -9534.000 -9534.000 -9534.000 -9534.000 -9534.000 -9534.000 -9534.000 -9534.000 -1.000
0.084 -9194.000 -9194.000 -9194.000 -9194.000 -9194.000 -9194.000 -9194.000 -9194.000 -9194.000 -9194.000 -9194.000 -9194.000 -9194.000 -9194.000 -9194.000 -9194.000 -9194.000 -9194.000 -9194.000 -9194.000 -9194.000 -1.000
0.086 -8764.000 -8764.000 -8764.000 -8764.000 -8764.000 -8764.000 -8764.000 -8764.000 -8764.000 -8764.000 -8764.000 -8764.000 -8764.000 -8764.000 -8764.000 -8764.000 -8764.000 -8764.000 -8764.000 -8764.000 -8764.000 -1.000
0.088 -8251.000 -8251.000 -8251.000 -8251.000 -8251.000 -8251.000 -8251.000 -8251.000 -8251.000 -8251.000 -8251.000 -8251.000 -8251.000 -8251.000 -8251.000 -8251.000 -8251.000 -8251.000 -8251.000 -8251.000 -8251.000 -1.000
0.090 -7659.000 -7659.000 -7659.000 -7659.000 -7659.000 -7659.000 -7659.000 -7659.000 -7659.000 -7659.000 -7659.000 -7659.000 -7659.000 -7659.000 -7659.000 -7659.000 -7659.000 -7659.000 -7659.000 -7659.000 -7659.000 -1.000
0.092 -6993.000 -6993.000 -6993.000 -6993.000 -6993.000 -6993.000 -6993.000 -6993.000 -6993.000 -6993.000 -6993.000 -6993.000 -6993.000 -6993.000 -6993.000 -6993.000 -6993.000 -6993.000 -6993.000 -6993.000 -6993.000 -1.000
0.094 -6260.000 -6260.000 -6260.000 -6260.000 -6260.000 -6260.000 -6260.000 -6260.000 -6260.000 -6260.000 -6260.000 -6260.000 -6260.000 -6260.000 -6260.000 -6260.000 -6260.000 -6260.000 -6260.000 -6260.000 -6260.000 -1.000
0.096 -5466.000 -5466.000 -5466.000 -5466.000 -5466.000 -5466.000 -5466.000 -5466.000 -5466.000 -5466.000 -5466.000 -5466.000 -5466.000 -5466.000 -5466.000 -5466.000 -5466.000 -5466.000 -5466.000 -5466.000 -5466.000 -1.000
0.098 -4621.000 -4621.000 -4621.000 -4621.000 -4621.000 -4621.000 -4621.000 -4621.000 -4621.000 -4621.000 -4621.000 -4621.000 -4621.000 -4621.000 -4621.000 -4621.000 -4621.000 -4621.000 -4621.000 -4621.000 -4621.000 -1.000
0.100 -3731.000 -3731.000 -3731.000 -3731.000 -3731.000 -3731.000 -3731.000 -3731.000 -3731.000 -3731.000 -3731.000 -3731.000 -3731.000 -3731.000 -3731.000 -3731.000 -3731.000 -3731.000 -3731.000 -3731.000 -3731.000 -1.000
0.102 -2805.000 -2805.000 -2805.000 -2805.000 -2805.000 -2805.000 -2805.000 -2805.000 -2805.000 -2805.000 -2805.000 -2805.000 -2805.000 -2805.000 -2805.000 -2805.000 -2805.000 -2805.000 -2805.000 -2805.000 -2805.000 -1.000
0.104 -1852.000 -1852.000 -1852.000 -1852.000 -1852.000 -1852.000 -1852.000 -1852.000 -1852.000 -1852.000 -1852.000 -1852.000 -1852.000 -1852.000 -1852.000 -1852.000 -1852.000 -1852.000 -1852.000 -1852.000 -1852.000 -1.000
0.106 -881.000 -881.000 -881.000 -881.000 -881.000 -881.000 -881.000 -881.000 -881.000 -881.000 -881.000 -881.000 -881.000 -881.000 -881.000 -881.000 -881.000 -881.000 -881.000 -881.000 -881.000 -1.000
0.108 98.000 98.000 98.000 98.000 98.000 98.000 98.000 98.000 98.000 98.000 98.000 98.000 98.000 98.000 98.000 98.000 98.000 98.000 98.000 98.000 98.000 -1.000
0.110 1076.000 1076.000 1076.000 1076.000 1076.000 1076.000 1076.000 1076.000 1076.000 1076.000 1076.000 1076.000 1076.000 1076.000 1076.000 1076.000 1076.000 1076.000 1076.000 1076.000 1076.000 -1.000
0.112 2044.000 2044.000 2044.000 2044.000 2044.000 2044.000 2044.000 2044.000 2044.000 2044.000 2044.000 2044.000 2044.000 2044.000 2044.000 2044.000 2044.000 2044.000 2044.000 2044.000 2044.000 -1.000
0.114 2992.000 2992.000 2992.000 2992.000 2992.000 2992.000 2992.000 2992.000 2992.000 2992.000 2992.000 2992.000 2992.000 2992.000 2992.000 2992.000 2992.000 2992.000 2992.000 2992.000 2992.000 -1.000
0.116 3911.000 3911.000 3911.000 3911.000 3911.000 3911.000 3911.000 3911.000 3911.000 3911.000 3911.000 3911.000 3911.000 3911.000 3911.000 3911.000 3911.000 3911.000 3911.000 3911.000 3911.000 -1.000
0.118 4793.000 4793.000 4793.000 4793.000 4793.000 4793.000 4793.000 4793.000 4793.000 4793.000 4793.000 4793.000 4793.000 4793.000 4793.000 4793.000 4793.000 4793.000 4793.000 4793.000 4793.000 -1.000
0.120 5629.000 5629.000 5629.000 5629.000 5629.000 5629.000 5629.000 5629.000 5629.000 5629.000 5629.000 5629.000 5629.000 5629.000 5629.000 5629.000 5629.000 5629.000 5629.000 5629.000 5629.000 -1.000
0.122 6411.000 6411.000 6411.000 6411.000 6411.000 6411.000 6411.000 6411.000 6411.000 6411.000 6411.000 6411.000 6411.000 6411.000 6411.000 6411.000 6411.000 6411.000 6411.000 6411.000 6411.000 -1.000
0.124 7131.000 7131.000 7131.000 7131.000 7131.000 7131.000 7131.000 7131.000 7131.000 7131.000 7131.000 7131.000 7131.000 7131.000 7131.000 7131.000 7131.000 7131.000 7131.000 7131.000 7131.000 -1.000
0.126 7783.000 7783.000 7783.000 7783.000 7783.000 7783.000 7783.000 7783.000 7783.000 7783.000 7783.000 7783.000 7783.000 7783.000 7783.000 7783.000 7783.000 7783.000 7783.000 7783.000 7783.000 -1.000
0.128 8360.000 8360.000 8360.000 8360.000 8360.000 8360.000 8360.000 8360.000 8360.000 8360.000 8360.000 8360.000 8360.000 8360.000 8360.000 8360.000 8360.000 8360.000 8360.000 8360.000 8360.000 -1.000
0.130 8857.000 8857.000 8857.000 8857.000 8857.000 8857.000 8857.000 8857.000 8857.000 8857.000 8857.000 8857.000 8857.000 8857.000 8857.000 8857.000 8857.000 8857.000 8857.000 8857.000 8857.000 -1.000
0.132 9269.000 9269.000 9269.000 9269.000 9269.000 9269.000 9269.000 9269.000 9269.000 9269.000 9269.000 9269.000 9269.000 9269.000 9269.000 9269.000 9269.000 9269.000 9269.000 9269.000 9269.000 -1.000
0.134 9592.000 9592.000 9592.000 9592.000 9592.000 9592.000 9592.000 9592.000 9592.000 9592.000 9592.000 9592.000 9592.000 9592.000 9592.000 9592.000 9592.000 9592.000 9592.000 9592.000 9592.000 -1.000
0.136 9822.000 9822.000 9822.000 9822.000 9822.000 9822.000 9822.000 9822.000 9822.000 9822.000 9822.000 9822.000 9822.000 9822.000 9822.000 9822.000 9822.000 9822.000 9822.000 9822.000 9822.000 -1.000
0.138 9959.000 9959.000 9959.000 9959.000 9959.000 9959.000 9959.000 9959.000 9959.000 9959.000 9959.000 9959.000 9959.000 9959.000 9959.000 9959.000 9959.000 9959.000 9959.000 9959.000 9959.000 -1.000
0.140 10000.000 10000.000 10000.000 10000.000 10000.000 10000.000 10000.000 10000.000 10000.000 10000.000 10000.000 10000.000 10000.000 10000.000 10000.000 10000.000 10000.000 10000.000 10000.000 10000.000 10000.000 -1.000
0.142 9945.000 9945.000 9945.000 9945.000 9945.000 9945.000 9945.000 9945.000 9945.000 9945.000 9945.000 9945.000 9945.000 9945.000 9945.000 9945.000 9945.000 9945.000 9945.000 9945.000 9945.000 -1.000
0.144 9794.000 9794.000 9794.000 9794.000 9794.000 9794.000 9794.000 9794.000 9794.000 9794.000 9794.000 9794.000 9794.000 9794.000 9794.000 9794.000 9794.000 9794.000 9794.000 9794.000 9794.000 -1.000
0.146 9549.000 9549.000 9549.000 9549.000 9549.000 9549.000 9549.000 9549.000 9549.000 9549.000 9549.000 9549.000 9549.000 9549.000 9549.000 9549.000 9549.000 9549.000 9549.000 9549.000 9549.000 -1.000
0.148 9213.000 9213.000 9213.000 9213.000 9213.000 9213.000 9213.000 9213.000 9213.000 9213.000 9213.000 9213.000 9213.000 9213.000 9213.000 9213.000 9213.000 9213.000 9213.000 9213.000 9213.000 -1.000
0.150 8789.000 8789.000 8789.000 8789.000 8789.000 8789.000 8789.000 8789.000 8789.000 8789.000 8789.000 8789.000 8789.000 8789.000 8789.000 8789.000 8789.000 8789.000 8789.000 8789.000 8789.000 -1.000
0.152 8279.000 8279.000 8279.000 8279.000 8279.000 8279.000 8279.000 8279.000 8279.000 8279.000 8279.000 8279.000 8279.000 8279.000 8279.000 8279.000 8279.000 8279.000 8279.000 8279.000 8279.000 -1.000
0.154 7691.000 7691.000 7691.000 7691.000 7691.000 7691.000 7691.000 7691.000 7691.000 7691.000 7691.000 7691.000 7691.000 7691.000 7691.000 7691.000 7691.000 7691.000 7691.000 7691.000 7691.000 -1.000
0.156 7029.000 7029.000 7029.000 7029.000 7029.000 7029.000 7029.000 7029.000 7029.000 7029.000 7029.000 7029.000 7029.000 7029.000 7029.000 7029.000 7029.000 7029.000 7029.000 7029.000 7029.000 -1.000
0.158 6299.000 6299.000 6299.000 6299.000 6299.000 6299.000 6299.000 6299.000 6299.000 6299.000 6299.000 6299.000 6299.000 6299.000 6299.000 6299.000 6299.000 6299.000 6299.000 6299.000 6299.000 -1.000
0.160 5508.000 5508.000 5508.000 5508.000 5508.000 5508.000 5508.000 5508.000 5508.000 5508.000 5508.000 5508.000 5508.000 5508.000 5508.000 5508.000 5508.000 5508.000 5508.000 5508.000 5508.000 -1.000
0.162 4665.000 4665.000 4665.000 4665.000 4665.000 4665.000 4665.000 4665.000 4665.000 4665.000 4665.000 4665.000 4665.000 4665.000 4665.000 4665.000 4665.000 4665.000 4665.000 4665.000 4665.000 -1.000
0.164 3777.000 3777.000 3777.000 3777.000 3777.000 3777.000 3777.000 3777.000 3777.000 3777.000 3777.000 3777.000 3777.000 3777.000 3777.000 3777.000 3777.000 3777.000 3777.000 3777.000 3777.000 -1.000
0.166 2853.000 2853.000 2853.000 2853.000 2853.000 2853.000 2853.000 2853.000 2853.000 2853.000 2853.000 2853.000 2853.000 2853.000 2853.000 2853.000 2853.000 2853.000 2853.000 2853.000 2853.000 -1.000
0.168 1901.000 1901.000 1901.000 1901.000 1901.000 1901.000 1901.000 1901.000 1901.000 1901.000 1901.000 1901.000 1901.000 1901.000 1901.000 1901.000 1901.000 1901.000 1901.000 1901.000 1901.000 -1.000
0.170 931.000 931.000 931.000 931.000 931.000 931.000 931.000 931.000 931.000 931.000 931.000 931.000 931.000 931.000 931.000 931.000 931.000 931.000 931.000 931.000 931.000 -1.000
0.172 -47.000 -47.000 -47.000 -47.000 -47.000 -47.000 -47.000 -47.000 -47.000 -47.000 -47.000 -47.000 -47.000 -47.000 -47.000 -47.000 -47.000 -47.000 -47.000 -47.000 -47.000 -1.000
0.174 -1026.000 -1026.000 -1026.000 -1026.000 -1026.000 -1026.000 -1026.000 -1026.000 -1026.000 -1026.000 -1026.000 -1026.000 -1026.000 -1026.000 -1026.000 -1026.000 -1026.000 -1026.000 -1026.000 -1026.000 -1026.000 -1.000
0.176 -1994.000 -1994.000 -1994.000 -1994.000 -1994.000 -1994.000 -1994.000 -1994.000 -1994.000 -1994.000 -1994.000 -1994.000 -1994.000 -1994.000 -1994.000 -1994.000 -1994.000 -1994.000 -1994.000 -1994.000 -1994.000 -1.000
0.178 -2944.000 -2944.000 -2944.000 -2944.000 -2944.000 -2944.000 -2944.000 -2944.000 -2944.000 -2944.000 -2944.000 -2944.000 -2944.000 -2944.000 -2944.000 -2944.000 -2944.000 -2944.000 -2944.000 -2944.000 -2944.000 -1.000
0.180 -3865.000 -3865.000 -3865.000 -3865.000 -3865.000 -3865.000 -3865.000 -3865.000 -3865.000 -3865.000 -3865.000 -3865.000 -3865.000 -3865.000 -3865.000 -3865.000 -3865.000 -3865.000 -3865.000 -3865.000 -3865.000 -1.000
0.182 -4749.000 -4749.000 -4749.000 -4749.000 -4749.000 -4749.000 -4749.000 -4749.000 -4749.000 -4749.000 -4749.000 -4749.000 -4749.000 -4749.000 -4749.000 -4749.000 -4749.000 -4749.000 -4749.000 -4749.000 -4749.000 -1.000
0.184 -5587.000 -5587.000 -5587.000 -5587.000 -5587.000 -5587.000 -5587.000 -5587.000 -5587.000 -5587.000 -5587.000 -5587.000 -5587.000 -5587.000 -5587.000 -5587.000 -5587.000 -5587.000 -5587.000 -5587.000 -5587.000 -1.000
0.186 -6372.000 -6372.000 -6372.000 -6372.000 -6372.000 -6372.000 -6372.000 -6372.000 -6372.000 -6372.000 -6372.000 -6372.000 -6372.000 -6372.000 -6372.000 -6372.000 -6372.000 -6372.000 -6372.000 -6372.000 -6372.000 -1.000
